# ang_deg abs(r)**2 abs(t)**2 r.real r.imag t.real t.imag
0.1 0.935395 3.29989e-190 -0.77368 -0.580357 -2.00652e-96 -1.80544e-95 
0.1019 0.934072 8.76988e-190 -0.765715 -0.589705 -2.31214e-96 -2.95236e-95 
0.1038 0.932742 2.37561e-189 -0.757618 -0.598963 -2.18994e-96 -4.8691e-95 
0.1057 0.931405 6.56008e-189 -0.749389 -0.608129 -8.94333e-97 -8.09894e-95 
0.1076 0.930061 1.847e-188 -0.741029 -0.617201 3.20282e-96 -1.35867e-94 
0.1095 0.92871 5.30292e-188 -0.732537 -0.626178 1.35557e-95 -2.29881e-94 
0.1114 0.92735 1.55284e-187 -0.723914 -0.635058 3.73658e-95 -3.92286e-94 
0.1133 0.925983 4.63847e-187 -0.715161 -0.643839 8.94896e-95 -6.75158e-94 
0.1152 0.924608 1.41362e-186 -0.706277 -0.652518 2.00393e-94 -1.17195e-93 
0.1171 0.923224 4.39617e-186 -0.697264 -0.661096 4.32374e-94 -2.05164e-93 
0.119 0.921831 1.39533e-185 -0.68812 -0.669569 9.1276e-94 -3.62218e-93 
0.1209 0.92043 4.52086e-185 -0.678848 -0.677935 1.9021e-93 -6.44908e-93 
0.1228 0.919019 1.4955e-184 -0.669446 -0.686193 3.93486e-93 -1.15787e-92 
0.1247 0.917599 5.05188e-184 -0.659916 -0.694341 8.11142e-93 -2.09617e-92 
0.1266 0.916168 1.74304e-183 -0.650257 -0.702377 1.67072e-92 -3.82611e-92 
0.1285 0.914728 6.14377e-183 -0.640471 -0.710299 3.44515e-92 -7.0405e-92 
0.1304 0.913277 2.21271e-182 -0.630557 -0.718105 7.12304e-92 -1.30588e-91 
0.1323 0.911815 8.14451e-182 -0.620516 -0.725793 1.47837e-91 -2.44109e-91 
0.1342 0.910343 3.06444e-181 -0.610349 -0.73336 3.08299e-91 -4.59778e-91 
0.1361 0.908858 1.1789e-180 -0.600055 -0.740805 6.46481e-91 -8.72331e-91 
0.138 0.907362 4.63811e-180 -0.589635 -0.748126 1.36399e-90 -1.66663e-90 
0.1399 0.905854 1.86656e-179 -0.57909 -0.75532 2.89708e-90 -3.20508e-90 
0.1418 0.904333 7.68573e-179 -0.56842 -0.762385 6.19725e-90 -6.20092e-90 
0.1437 0.902799 3.23873e-178 -0.557626 -0.769319 1.33564e-89 -1.20615e-89 
0.1456 0.901252 1.39707e-177 -0.546707 -0.77612 2.90117e-89 -2.35668e-89 
0.1475 0.89969 6.17066e-177 -0.535665 -0.782786 6.35288e-89 -4.62034e-89 
0.1494 0.898115 2.79143e-176 -0.5245 -0.789313 1.40277e-88 -9.07567e-89 
0.1513 0.896525 1.29366e-175 -0.513212 -0.7957 3.12397e-88 -1.78255e-88 
0.1532 0.89492 6.14382e-175 -0.501803 -0.801944 7.01795e-88 -3.49092e-88 
0.1551 0.893299 2.99091e-174 -0.490272 -0.808043 1.5906e-87 -6.78896e-88 
0.157 0.891663 1.49295e-173 -0.47862 -0.813994 3.63756e-87 -1.30295e-87 
0.1589 0.890009 7.64356e-173 -0.466847 -0.819794 8.39452e-87 -2.44288e-87 
0.1608 0.888339 4.01507e-172 -0.454955 -0.825442 1.955e-86 -4.39375e-87 
0.1627 0.88665 2.1646e-171 -0.442944 -0.830934 4.59489e-86 -7.30048e-87 
0.1646 0.884944 1.19811e-170 -0.430815 -0.836267 1.08989e-85 -1.01245e-86 
0.1665 0.883219 6.81079e-170 -0.418567 -0.841439 2.60885e-85 -6.84184e-87 
0.1684 0.881474 3.97775e-169 -0.406203 -0.846447 6.30146e-85 2.62979e-86 
0.1703 0.879709 2.38768e-168 -0.393722 -0.851288 1.53567e-84 1.71478e-85 
0.1722 0.877923 1.4736e-167 -0.381125 -0.855959 3.77513e-84 6.95979e-85 
0.1741 0.876115 9.3544e-167 -0.368413 -0.860457 9.35884e-84 2.4405e-84 
0.176 0.874286 6.11032e-166 -0.355587 -0.864779 2.33886e-83 8.00035e-84 
0.1779 0.872433 4.10871e-165 -0.342648 -0.868922 5.8892e-83 2.5307e-83 
0.1798 0.870557 2.84531e-164 -0.329597 -0.872882 1.49308e-82 7.84873e-83 
0.1817 0.868656 2.03016e-163 -0.316433 -0.876656 3.80792e-82 2.4086e-82 
0.1836 0.866729 1.49318e-162 -0.303159 -0.880241 9.7575e-82 7.3559e-82 
0.1855 0.864776 1.13262e-161 -0.289776 -0.883632 2.50785e-81 2.24429e-81 
0.1874 0.862796 8.86459e-161 -0.276283 -0.886828 6.44987e-81 6.85895e-81 
0.1893 0.860787 7.16253e-160 -0.262683 -0.889823 1.65427e-80 2.10378e-80 
0.1912 0.858749 5.97775e-159 -0.248976 -0.892614 4.20964e-80 6.48509e-80 
0.1931 0.856681 5.15603e-158 -0.235164 -0.895197 1.05422e-79 2.01113e-79 
0.195 0.85458 4.59886e-157 -0.221247 -0.897569 2.56206e-79 6.27889e-79 
0.1969 0.852447 4.24428e-156 -0.207228 -0.899724 5.88088e-79 1.97444e-78 
0.1988 0.85028 4.05553e-155 -0.193106 -0.90166 1.19582e-78 6.25502e-78 
0.2007 0.848078 4.01478e-154 -0.178884 -0.90337 1.71225e-78 1.99636e-77 
0.2026 0.845838 4.12042e-153 -0.164563 -0.904852 -1.32546e-78 6.41768e-77 
0.2045 0.843561 4.38724e-152 -0.150145 -0.9061 -2.7122e-77 2.07694e-76 
0.2064 0.841243 4.84986e-151 -0.13563 -0.907109 -1.6701e-76 6.76087e-76 
0.2083 0.838884 5.57041e-150 -0.121021 -0.907876 -8.26477e-76 2.21073e-75 
0.2102 0.836482 6.65289e-149 -0.10632 -0.908393 -3.743e-75 7.24699e-75 
0.2121 0.834035 8.26912e-148 -0.0915279 -0.908657 -1.62206e-74 2.37446e-74 
0.214 0.83154 1.07056e-146 -0.076647 -0.908661 -6.86602e-74 7.7404e-74 
0.2159 0.828997 1.44497e-145 -0.0616794 -0.908401 -2.87037e-73 2.49212e-73 
0.2178 0.826402 2.03524e-144 -0.0466272 -0.90787 -1.1928e-72 7.82605e-73 
0.2197 0.823754 2.9944e-143 -0.0314927 -0.907063 -4.94619e-72 2.34077e-72 
0.2216 0.82105 4.60673e-142 -0.0162783 -0.905972 -2.05121e-71 6.31885e-72 
0.2235 0.818288 7.41885e-141 -0.000986676 -0.904592 -8.51545e-71 1.29444e-71 
0.2254 0.815464 1.25209e-139 0.0143795 -0.902916 -3.53848e-70 -7.68069e-73 
0.2273 0.812575 2.21721e-138 0.0298172 -0.900936 -1.46988e-69 -2.38016e-70 
0.2292 0.809619 4.12474e-137 0.0453235 -0.898646 -6.08712e-69 -2.04799e-69 
0.2311 0.806593 8.07184e-136 0.0608949 -0.896038 -2.50068e-68 -1.3485e-68 
0.233 0.803491 1.66393e-134 0.0765278 -0.893104 -1.01034e-67 -8.01964e-68 
0.2349 0.800312 3.61831e-133 0.0922185 -0.889836 -3.95154e-67 -4.53524e-67 
0.2368 0.797049 8.31271e-132 0.107963 -0.886224 -1.44847e-66 -2.49292e-66 
0.2387 0.7937 2.02081e-130 0.123757 -0.882261 -4.58301e-66 -1.34565e-65 
0.2406 0.790259 5.20673e-129 0.139595 -0.877937 -8.7722e-66 -7.16225e-65 
0.2425 0.786721 1.42426e-127 0.155472 -0.873241 3.52052e-65 -3.75748e-64 
0.2444 0.783081 4.14326e-126 0.171383 -0.868164 6.37027e-64 -1.93325e-63 
0.2463 0.779331 1.28403e-124 0.187323 -0.862694 5.95703e-63 -9.63933e-63 
0.2482 0.775467 4.24645e-123 0.203283 -0.856821 4.67446e-62 -4.54025e-62 
0.2501 0.77148 1.5011e-121 0.219258 -0.850533 3.37691e-61 -1.89935e-61 
0.252 0.767363 5.68081e-120 0.235239 -0.843816 2.31462e-60 -5.68649e-61 
0.2539 0.763107 2.30504e-118 0.251219 -0.836658 1.51674e-59 6.73813e-61 
0.2558 0.758704 1.00434e-116 0.267187 -0.829045 9.43328e-59 3.38335e-59 
0.2577 0.754143 4.70714e-115 0.283134 -0.820962 5.42109e-58 4.20513e-58 
0.2596 0.749413 2.37802e-113 0.299049 -0.812393 2.67081e-57 4.08008e-57 
0.2615 0.744502 1.29833e-111 0.314919 -0.803323 8.26268e-57 3.50721e-56 
0.2634 0.739397 7.68458e-110 0.33073 -0.793735 -3.71646e-56 2.74708e-55 
0.2653 0.734083 4.94865e-108 0.346468 -0.783609 -1.10338e-54 1.93163e-54 
0.2672 0.728544 3.48102e-106 0.362116 -0.772927 -1.48835e-53 1.1251e-53 
0.2691 0.722762 2.68611e-104 0.377654 -0.761669 -1.59903e-52 3.59484e-53 
0.271 0.716716 2.28395e-102 0.393062 -0.749813 -1.47196e-51 -3.42457e-52 
0.2729 0.710385 2.14994e-100 0.408315 -0.737336 -1.11753e-50 -9.49243e-51 
0.2748 0.703744 2.25144e-98 0.423387 -0.724215 -5.32247e-50 -1.40291e-49 
0.2767 0.696765 2.63632e-96 0.438248 -0.710425 2.79342e-49 -1.59947e-48 
0.2786 0.689417 3.46996e-94 0.452862 -0.69594 1.26068e-47 -1.37137e-47 
0.2805 0.681665 5.16182e-92 0.467191 -0.680733 2.21818e-46 -4.9143e-47 
0.2824 0.673469 8.72681e-90 0.481188 -0.664776 2.67912e-45 1.24463e-45 
0.2843 0.664787 1.68631e-87 0.494803 -0.648041 1.72731e-44 3.72551e-44 
0.2862 0.655569 3.74525e-85 0.507974 -0.6305 -1.94002e-43 5.80421e-43 
0.2881 0.645758 9.61246e-83 0.520633 -0.612127 -8.91409e-42 4.08211e-42 
0.29 0.635294 2.86509e-80 0.532699 -0.592896 -1.51692e-40 -7.5102e-41 
0.2919 0.624108 9.95779e-78 0.54408 -0.572787 -4.46405e-40 -3.12386e-39 
0.2938 0.612124 4.04639e-75 0.554667 -0.551786 5.05469e-38 -3.86187e-38 
0.2957 0.59926 1.92337e-72 0.564337 -0.52989 1.20897e-36 6.79519e-37 
0.2976 0.585432 1.06641e-69 0.572948 -0.507112 -7.27857e-36 3.18344e-35 
0.2995 0.570551 6.84473e-67 0.580339 -0.483485 -8.25098e-34 -6.07085e-35 
0.3014 0.554538 5.01373e-64 0.586333 -0.459077 1.71912e-33 -2.23253e-32 
0.3033 0.537326 4.0946e-61 0.590741 -0.433995 6.19172e-31 1.61513e-31 
0.3052 0.518881 3.60038e-58 0.593371 -0.408402 -1.1162e-29 1.53443e-29 
0.3071 0.499214 3.24638e-55 0.594046 -0.382522 -1.97358e-28 -5.34498e-28 
0.309 0.478409 2.81673e-52 0.592631 -0.356649 1.50103e-26 7.5075e-27 
0.3109 0.456638 2.17749e-49 0.589057 -0.331133 -4.65983e-25 2.46693e-26 
0.3128 0.434166 1.3773e-46 0.583359 -0.306363 1.10783e-23 -3.87308e-24 
0.3147 0.411341 6.54925e-44 0.575684 -0.282718 -2.35442e-22 1.00298e-22 
0.3166 0.388556 2.17534e-41 0.566288 -0.260526 4.48167e-21 -1.29155e-21 
0.3185 0.366201 4.78607e-39 0.55551 -0.240019 -6.91795e-20 5.26651e-22 
0.3204 0.344612 6.78264e-37 0.543719 -0.221317 7.66546e-19 3.01117e-19 
0.3223 0.324045 6.16921e-35 0.531274 -0.204433 -5.3343e-18 -5.76518e-18 
0.3242 0.304661 3.65927e-33 0.518487 -0.189293 1.58411e-17 5.83809e-17 
0.3261 0.28654 1.45698e-31 0.505613 -0.175771 8.28781e-17 -3.72598e-16 
0.328 0.269694 4.03589e-30 0.492841 -0.163712 -1.26693e-15 1.5591e-15 
0.3299 0.25409 8.07794e-29 0.480308 -0.152953 8.04791e-15 -4.00131e-15 
0.3318 0.239666 1.2122e-27 0.468103 -0.14334 -3.47003e-14 2.84392e-15 
0.3337 0.226345 1.41133e-26 0.456282 -0.134726 1.15293e-13 2.86514e-14 
0.3356 0.214041 1.31475e-25 0.444878 -0.126986 -3.16311e-13 -1.77261e-13 
0.3375 0.202672 1.00694e-24 0.433901 -0.120006 7.55618e-13 6.60288e-13 
0.3394 0.192155 6.49226e-24 0.423355 -0.11369 -1.65177e-12 -1.94008e-12 
0.3413 0.182414 3.59683e-23 0.413231 -0.107954 3.47117e-12 4.89074e-12 
0.3432 0.173379 1.74284e-22 0.403518 -0.102727 -7.31161e-12 -1.0992e-11 
0.3451 0.164987 7.49953e-22 0.3942 -0.0979467 1.57472e-11 2.24049e-11 
0.347 0.157178 2.90378e-21 0.385259 -0.0935617 -3.43892e-11 -4.14869e-11 
0.3489 0.149902 1.02326e-20 0.376679 -0.0895266 7.41818e-11 6.87723e-11 
0.3508 0.143111 3.31418e-20 0.368441 -0.0858024 -1.53548e-10 -9.77995e-11 
0.3527 0.136762 9.95071e-20 0.360527 -0.0823557 2.97434e-10 1.05073e-10 
0.3546 0.130819 2.79035e-19 0.35292 -0.0791573 -5.27049e-10 -3.54166e-11 
0.3565 0.125246 7.3557e-19 0.345605 -0.076182 8.3137e-10 -2.10701e-10 
0.3584 0.120014 1.8333e-18 0.338564 -0.0734077 -1.11417e-09 7.69362e-10 
0.3603 0.115095 4.34187e-18 0.331784 -0.0708151 1.12696e-09 -1.75267e-09 
0.3622 0.110465 9.81488e-18 0.325251 -0.0683872 -4.35078e-10 3.10251e-09 
0.3641 0.1061 2.12604e-17 0.318951 -0.0661091 -1.48608e-09 -4.36486e-09 
0.366 0.101981 4.42853e-17 0.312872 -0.0639676 4.90798e-09 4.49411e-09 
0.3679 0.0980892 8.89829e-17 0.307004 -0.0619508 -9.22986e-09 -1.94747e-09 
0.3698 0.0944081 1.72953e-16 0.301334 -0.0600484 1.23252e-08 -4.58731e-09 
0.3717 0.0909226 3.25998e-16 0.295854 -0.0582511 -1.05025e-08 1.46865e-08 
0.3736 0.0876189 5.97236e-16 0.290553 -0.0565503 -2.59575e-11 -2.44384e-08 
0.3755 0.0844845 1.06563e-15 0.285423 -0.0549388 1.97529e-08 2.59895e-08 
0.3774 0.0815079 1.85523e-15 0.280456 -0.0534097 -4.17732e-08 -1.0499e-08 
0.3793 0.0786787 3.15679e-15 0.275643 -0.0519569 5.05131e-08 -2.46012e-08 
0.3812 0.075987 5.25785e-15 0.270978 -0.0505749 -2.78597e-08 6.69454e-08 
0.3831 0.0734243 8.58393e-15 0.266454 -0.0492588 -3.19172e-08 -8.69783e-08 
0.385 0.0709822 1.3754e-14 0.262064 -0.0480039 1.05546e-07 5.11281e-08 
0.3869 0.0686533 2.1654e-14 0.257803 -0.0468062 -1.38828e-07 4.87939e-08 
0.3888 0.0664308 3.35331e-14 0.253665 -0.0456619 7.52417e-08 -1.66948e-07 
0.3907 0.0643082 5.1128e-14 0.249644 -0.0445676 8.91981e-08 2.07778e-07 
0.3926 0.0622796 7.68212e-14 0.245735 -0.04352 -2.6331e-07 -8.65383e-08 
0.3945 0.0603396 1.13841e-13 0.241934 -0.0425163 2.87931e-07 -1.7589e-07 
0.3964 0.0584832 1.66512e-13 0.238236 -0.0415539 -5.65362e-08 4.04124e-07 
0.3983 0.0567055 2.40562e-13 0.234637 -0.0406302 -3.38368e-07 -3.55062e-07 
0.4002 0.0550022 3.43499e-13 0.231134 -0.039743 5.82724e-07 -6.26979e-08 
0.4021 0.0533694 4.8507e-13 0.227721 -0.0388902 -3.52804e-07 6.00499e-07 
0.404 0.0518031 6.77813e-13 0.224396 -0.0380699 -3.33062e-07 -7.52916e-07 
0.4059 0.0502998 9.37712e-13 0.221156 -0.0372803 9.50583e-07 1.84673e-07 
0.4078 0.0488562 1.28498e-12 0.217997 -0.0365197 -8.02013e-07 8.01094e-07 
0.4097 0.0474693 1.74496e-12 0.214915 -0.0357865 -2.68343e-07 -1.29343e-06 
0.4116 0.0461362 2.34923e-12 0.21191 -0.0350794 1.43322e-06 5.43235e-07 
0.4135 0.0448541 3.13681e-12 0.208976 -0.034397 -1.40498e-06 1.07835e-06 
0.4154 0.0436206 4.15562e-12 0.206112 -0.033738 -2.3053e-07 -2.02546e-06 
0.4173 0.0424331 5.46413e-12 0.203316 -0.0331013 2.13843e-06 9.44068e-07 
0.4192 0.0412896 7.13324e-12 0.200585 -0.0324858 -2.14569e-06 1.59036e-06 
0.4211 0.0401879 9.2484e-12 0.197916 -0.0318905 -4.00657e-07 -3.01461e-06 
0.423 0.039126 1.19121e-11 0.195309 -0.0313143 3.22723e-06 1.22356e-06 
0.4249 0.0381022 1.52465e-11 0.192759 -0.0307565 -2.92329e-06 2.58859e-06 
0.4268 0.0371145 1.93964e-11 0.190267 -0.0302161 -1.09667e-06 -4.26541e-06 
0.4287 0.0361614 2.45331e-11 0.187829 -0.0296924 4.84308e-06 1.03814e-06 
0.4306 0.0352413 3.08576e-11 0.185444 -0.0291846 -3.4233e-06 4.37478e-06 
0.4325 0.0343528 3.86051e-11 0.183111 -0.028692 -2.77905e-06 -5.55715e-06 
0.4344 0.0334944 4.80494e-11 0.180827 -0.028214 6.92863e-06 -2.08544e-07 
0.4363 0.0326649 5.95085e-11 0.178591 -0.02775 -2.9636e-06 7.12219e-06 
0.4382 0.0318629 7.33494e-11 0.176402 -0.0272993 -5.90681e-06 -6.20154e-06 
0.4401 0.0310874 8.99949e-11 0.174258 -0.0268613 8.89703e-06 -3.29208e-06 
0.442 0.0303372 1.09929e-10 0.172158 -0.0264357 -4.58368e-07 1.04747e-05 
0.4439 0.0296113 1.33707e-10 0.1701 -0.0260218 -1.04934e-05 -4.85751e-06 
0.4458 0.0289086 1.61959e-10 0.168084 -0.0256193 9.26324e-06 -8.72647e-06 
0.4477 0.0282282 1.95401e-10 0.166108 -0.0252276 5.20832e-06 1.29721e-05 
0.4496 0.0275691 2.34844e-10 0.16417 -0.0248463 -1.53227e-05 2.41555e-07 
0.4515 0.0269307 2.81202e-10 0.16227 -0.024475 5.63538e-06 -1.57938e-05 
0.4534 0.0263119 3.35505e-10 0.160407 -0.0241134 1.40818e-05 1.17136e-05 
0.4553 0.0257121 3.98906e-10 0.15858 -0.0237611 -1.72019e-05 1.01489e-05 
0.4572 0.0251305 4.72698e-10 0.156787 -0.0234177 -4.23693e-06 -2.13248e-05 
0.4591 0.0245664 5.58322e-10 0.155028 -0.023083 2.34174e-05 3.15415e-06 
0.461 0.0240191 6.57381e-10 0.153301 -0.0227565 -1.13179e-05 2.30062e-05 
0.4629 0.0234881 7.71658e-10 0.151607 -0.0224381 -1.98667e-05 -1.94158e-05 
0.4648 0.0229726 9.03126e-10 0.149943 -0.0221274 2.65643e-05 -1.40522e-05 
0.4667 0.0224721 1.05397e-09 0.14831 -0.0218241 5.89339e-06 3.19254e-05 
0.4686 0.0219861 1.22658e-09 0.146706 -0.021528 -3.47899e-05 -4.03031e-06 
0.4705 0.021514 1.42362e-09 0.145131 -0.0212389 1.49427e-05 -3.46459e-05 
0.4724 0.0210553 1.64799e-09 0.143583 -0.0209564 3.12272e-05 2.59395e-05 
0.4743 0.0206096 1.90288e-09 0.142063 -0.0206805 -3.6066e-05 2.45381e-05 
0.4762 0.0201763 2.19177e-09 0.140569 -0.0204108 -1.48542e-05 -4.43973e-05 
0.4781 0.019755 2.51846e-09 0.139101 -0.0201472 5.01115e-05 -2.70056e-06 
0.48 0.0193454 2.8871e-09 0.137658 -0.0198895 -1.1189e-05 5.25538e-05 
0.4819 0.018947 3.3022e-09 0.13624 -0.0196374 -5.12838e-05 -2.59264e-05 
0.4838 0.0185594 3.76866e-09 0.134846 -0.0193909 4.05336e-05 -4.61052e-05 
0.4857 0.0181822 4.29179e-09 0.133475 -0.0191497 3.7078e-05 5.40093e-05 
0.4876 0.0178152 4.87733e-09 0.132127 -0.0189136 -6.53951e-05 2.45114e-05 
0.4895 0.0174579 5.53149e-09 0.130801 -0.0186826 -8.94118e-06 -7.38346e-05 
0.4914 0.01711 6.26098e-09 0.129496 -0.0184564 7.86237e-05 8.90529e-06 
0.4933 0.0167712 7.07302e-09 0.128213 -0.0182349 -2.81548e-05 7.92485e-05 
0.4952 0.0164412 7.97537e-09 0.126951 -0.018018 -7.54107e-05 -4.78392e-05 
0.4971 0.0161198 8.97637e-09 0.125709 -0.0178054 6.69492e-05 -6.70386e-05 
0.499 0.0158066 1.0085e-08 0.124487 -0.0175972 5.42854e-05 8.44872e-05 
0.5009 0.0155014 1.13108e-08 0.123284 -0.0173932 -9.95153e-05 3.75167e-05 
0.5028 0.015204 1.26641e-08 0.1221 -0.0171932 -1.72866e-05 -0.000111199 
0.5047 0.014914 1.41558e-08 0.120934 -0.0169972 0.000118842 5.69204e-06 
0.5066 0.0146312 1.57977e-08 0.119787 -0.016805 -3.05844e-05 0.000121911 
0.5085 0.0143555 1.76021e-08 0.118657 -0.0166165 -0.000120054 -5.64724e-05 
0.5104 0.0140866 1.95825e-08 0.117544 -0.0164316 8.23946e-05 -0.000113109 
0.5123 0.0138242 2.1753e-08 0.116448 -0.0162502 0.000101101 0.000107385 
0.5142 0.0135683 2.41285e-08 0.115369 -0.0160723 -0.00013051 8.4235e-05 
0.5161 0.0133185 2.6725e-08 0.114306 -0.0158977 -6.2882e-05 -0.0001509 
0.518 0.0130747 2.95594e-08 0.113258 -0.0157263 0.000167776 -3.75582e-05 
0.5199 0.0128368 3.26496e-08 0.112226 -0.0155581 8.90185e-06 0.000180472 
0.5218 0.0126045 3.60145e-08 0.11121 -0.0153929 -0.000188454 -2.23531e-05 
0.5237 0.0123777 3.96741e-08 0.110208 -0.0152307 5.54039e-05 -0.000191323 
0.5256 0.0121562 4.36496e-08 0.10922 -0.0150715 0.000188828 8.94062e-05 
0.5275 0.0119399 4.79633e-08 0.108247 -0.014915 -0.000123501 0.000180861 
0.5294 0.0117286 5.26385e-08 0.107288 -0.0147614 -0.000167454 -0.000156837 
0.5313 0.0115222 5.77002e-08 0.106343 -0.0146104 0.000188596 -0.000148767 
0.5332 0.0113205 6.31742e-08 0.10541 -0.0144621 0.000125084 0.00021801 
0.5351 0.0111234 6.90881e-08 0.104491 -0.0143163 -0.000244376 9.67896e-05 
0.537 0.0109308 7.54703e-08 0.103585 -0.014173 -6.43614e-05 -0.000267073 
0.5389 0.0107425 8.23513e-08 0.102692 -0.0140322 0.000285565 -2.83487e-05 
0.5408 0.0105584 8.97625e-08 0.10181 -0.0138937 -1.06428e-05 0.000299415 
0.5427 0.0103784 9.77371e-08 0.100941 -0.0137575 -0.00030828 -5.19679e-05 
0.5446 0.0102024 1.0631e-07 0.100084 -0.0136236 9.4958e-05 -0.000311918 
0.5465 0.0100303 1.15517e-07 0.0992382 -0.013492 0.000310183 0.000138936 
0.5484 0.00986189 1.25396e-07 0.098404 -0.0133624 -0.000183232 0.000303022 
0.5503 0.0096972 1.35988e-07 0.0975809 -0.013235 -0.000290468 -0.000227191 
0.5522 0.00953608 1.47332e-07 0.0967689 -0.0131097 0.000270189 -0.000272635 
0.5541 0.00937842 1.59473e-07 0.0959676 -0.0129863 0.000249709 0.000311639 
0.556 0.00922414 1.72456e-07 0.0951769 -0.012865 -0.000350999 0.000221936 
0.5579 0.00907316 1.86327e-07 0.0943966 -0.0127455 -0.000189619 -0.000387778 
0.5598 0.00892537 2.01135e-07 0.0936264 -0.0126279 0.000421538 -0.000153105 
0.5617 0.0087807 2.16932e-07 0.0928663 -0.0125122 0.000112776 0.0004519 
0.5636 0.00863906 2.33769e-07 0.0921159 -0.0123982 -0.000478542 6.90386e-05 
0.5655 0.00850039 2.51702e-07 0.0913753 -0.012286 -2.23202e-05 -0.000501202 
0.5674 0.00836459 2.70788e-07 0.090644 -0.0121755 0.000519674 2.69436e-05 
0.5693 0.0082316 2.91085e-07 0.0899221 -0.0120667 -7.83144e-05 0.000533809 
0.5712 0.00810133 3.12656e-07 0.0892093 -0.0119596 -0.000543508 -0.000131357 
0.5731 0.00797374 3.35564e-07 0.0885055 -0.011854 0.000185647 -0.000548725 
0.575 0.00784874 3.59875e-07 0.0878105 -0.01175 0.000549457 0.000240774 
0.5769 0.00772627 3.85657e-07 0.0871241 -0.0116476 -0.000296347 0.000545743 
0.5788 0.00760627 4.12981e-07 0.0864462 -0.0115466 -0.000537661 -0.000351996 
0.5807 0.00748868 4.4192e-07 0.0857767 -0.0114471 0.000407379 -0.000525322 
0.5826 0.00737343 4.7255e-07 0.0851154 -0.0113491 0.000508863 0.000462179 
0.5845 0.00726047 5.0495e-07 0.0844621 -0.0112525 -0.000516109 0.000488447 
0.5864 0.00714975 5.39199e-07 0.0838168 -0.0111573 -0.000464259 -0.000568913 
0.5883 0.0070412 5.75381e-07 0.0831793 -0.0110634 0.000620363 -0.000436498 
0.5902 0.00693477 6.13582e-07 0.0825495 -0.0109709 0.000405374 0.000670264 
0.5921 0.00683042 6.53892e-07 0.0819271 -0.0108796 -0.000718449 0.00037111 
0.594 0.0067281 6.96402e-07 0.0813122 -0.0107897 -0.000333932 -0.000764782 
0.5959 0.00662774 7.41205e-07 0.0807046 -0.010701 0.000809153 -0.000294068 
0.5978 0.00652932 7.884e-07 0.0801041 -0.0106135 0.000251748 0.000851483 
0.5997 0.00643277 8.38086e-07 0.0795107 -0.0105272 -0.000891714 0.0002072 
0.6016 0.00633807 8.90367e-07 0.0789242 -0.0104421 -0.000160646 -0.000929817 
0.6035 0.00624515 9.45349e-07 0.0783445 -0.0103582 0.000965783 -0.000112303 
0.6054 0.006154 1.00314e-06 0.0777716 -0.0102753 6.23818e-05 0.000999624 
0.6073 0.00606455 1.06385e-06 0.0772052 -0.0101936 -0.00103137 1.10832e-05 
0.6092 0.00597678 1.1276e-06 0.0766453 -0.010113 4.14008e-05 -0.00106108 
